#emission at  r = 8200.0,pc z = 51.5 pc
#lambda (microns), SED value (erg / pc^3 / A)
0.09120000153779982 7.10243726901944e+38
0.09205320097238963 7.217256346697815e+38
0.0929143823067921 7.333938139725536e+38
0.09378362021372963 7.452512867022168e+38
0.09466099006450727 7.573011237750239e+38
0.09554656793554799 7.695464459268483e+38
0.09644043061498904 7.819904245214093e+38
0.09734265560934063 7.946362823716107e+38
0.09825332115020624 8.07487294574203e+38
0.09917250620106595 8.205467893579869e+38
0.10010029046412362 8.338181489457764e+38
0.10103675438721761 8.473048104303477e+38
0.10198197917079656 8.610102666645957e+38
0.10293604677496006 8.749380671661338e+38
0.1038990399265655 8.890918190365684e+38
0.10487104212640133 9.034751878956862e+38
0.10585213765642724 9.180918988307981e+38
0.10684241158708234 9.329457373614829e+38
0.10784194978466154 9.48040550419984e+38
0.10885083891876099 9.633802473475083e+38
0.10986916646979311 9.789688009066917e+38
0.11089702073657216 9.948102483104863e+38
0.1119344908439704 1.0109086922677419e+39
0.11298166675064615 1.0272683020457488e+39
0.11403863925684414 1.0438933145500183e+39
0.11510550001226864 1.0607880354215814e+39
0.11618234152403048 1.0779568401520875e+39
0.11726925716466828 1.0954041752169955e+39
0.1183663411802447 1.1131345592271459e+39
0.1194736886985185 1.1311525840990182e+39
0.12059139573719316 1.1494629162439707e+39
0.12171955921224228 1.1680702977767746e+39
0.12285827694631343 1.1869795477437547e+39
0.12400764767721008 1.2061955633708524e+39
0.1251677710664532 1.2257233213319387e+39
0.12633874770792292 1.245567879037701e+39
0.12752067913658097 1.2657343759454404e+39
0.12871366783727464 1.2862280348901177e+39
0.1299178172536234 1.3070541634369934e+39
0.13113323179698821 1.3282181552562114e+39
0.13236001685552523 1.3497254915196821e+39
0.13359827880332387 1.3715817423206286e+39
0.13484812500963042 1.39379256811616e+39
0.13610966384815806 1.382255913292143e+39
0.1373830047064839 1.3662278990149677e+39
0.13866825799553395 1.3503860738632064e+39
0.13996553515915666 1.3347282749743752e+39
0.14127494868378648 1.319252364610907e+39
0.14259661210819724 1.3039562298681571e+39
0.14393064003334713 1.2888377823859986e+39
0.14527714813231582 1.2738949580637638e+39
0.1466362531603343 1.2591257167783082e+39
0.14800807296490864 1.2445280421055401e+39
0.14939272649603882 1.2300999410451814e+39
0.1507903338165324 1.2182684457845443e+39
0.15220101611241538 1.2084113317552477e+39
0.15362489570344026 1.1986341358796297e+39
0.15506209605369214 1.1889362102082539e+39
0.15651274178229432 1.1793169120450977e+39
0.15797695867421413 1.1697756039048427e+39
0.15945487369116942 1.1603116534706862e+39
0.1609466149826376 1.1509244335524946e+39
0.16245231189696735 1.1416133220451223e+39
0.16397209499259435 1.1323777018872621e+39
0.16550609604936192 1.1217797528821284e+39
0.1670544480799478 1.1083816651283917e+39
0.16861728534139733 1.0951439548808957e+39
0.17019474334676502 1.082064702392194e+39
0.17178695887686496 1.0691420108945614e+39
0.17339406999213067 1.0563740063249741e+39
0.17501621604458656 1.043758837053225e+39
0.17665353768993108 1.0312946736134528e+39
0.1783061768997328 1.0189797084388798e+39
0.1799742769737407 1.0068121555995754e+39
0.18165798255230986 9.947902505435106e+38
0.1833574396289429 9.82912249840708e+38
0.18507279556294923 9.7117643093031e+38
0.18680419909222246 9.595810918708216e+38
0.18855180034613725 9.481245510933383e+38
0.19031575085856722 9.368051471575897e+38
0.19209620358102436 9.256212385110422e+38
0.19389331289592115 9.145712032508854e+38
0.19570723462995732 9.036534388887158e+38
0.19753812606763138 8.928663621182615e+38
0.1993861459648787 8.822084085856656e+38
0.2012514545628371 8.696554643915472e+38
0.20313421360174158 8.563008384322213e+38
0.20503458633494842 8.431518782037268e+38
0.206952737543091 8.30205416384645e+38
0.2088888335483679 8.174583344313722e+38
0.21084304222896458 8.04907561826912e+38
0.2128155330336099 7.92550075341302e+38
0.21480647699626929 7.803828983032975e+38
0.21681604675097474 7.68403099883406e+38
0.21884441654679385 7.566077943878949e+38
0.22089176226293925 7.484831157871728e+38
0.2229582614240185 7.449635942936562e+38
0.2250440932154276 7.414606775732601e+38
0.22714943849888797 7.379742872862182e+38
0.2292744798281288 7.345043454623644e+38
0.2314194014647162 7.31050774499388e+38
0.23358438939403087 7.276134971611112e+38
0.23576963134139417 7.241924365757132e+38
0.2379753167883462 7.207875162340831e+38
0.24020163698907557 7.173986599880608e+38
0.24244878498700287 7.140257920487463e+38
0.24471695563151938 7.106688369848044e+38
0.2470063455948827 7.073277197207776e+38
0.2493171533892697 7.040023655354196e+38
0.2516495793839897 7.035231416248425e+38
0.25400382582285846 7.04223950714508e+38
0.2563800968417344 7.049254603901677e+38
0.2587785984862194 7.056276713521962e+38
0.26119953872952506 7.063305843016679e+38
0.2636431274905054 7.070341999403238e+38
0.2661095766518594 7.077385189706526e+38
0.26859910007850324 7.08443542095799e+38
0.27111191363611414 7.091492700196565e+38
0.2736482352098481 7.098557034467767e+38
0.27620828472323306 7.105628430824495e+38
0.2787922841572376 7.112706896326706e+38
0.28140045756951954 7.1699298253047e+38
0.2840330311138536 7.271693090762344e+38
0.286690233059741 7.374905723885335e+38
0.2893722938122028 7.479588367354578e+38
0.2920794459317585 7.585761957855617e+38
0.29481192415459057 7.693447730265262e+38
0.2975699654128989 7.802667221899096e+38
0.300353808855445 7.913442276818834e+38
0.3031636958682885 8.025795050201048e+38
0.3059998700957174 8.139748012768752e+38
0.3088625774613748 8.255323955284804e+38
0.3117520661895826 8.372545993110606e+38
0.31466858682686477 8.491437570829087e+38
0.31761239226367266 8.612022466933649e+38
0.32058373775631255 8.734324798583768e+38
0.3235828809490789 8.858369026429015e+38
0.3266100818965951 8.98417995950039e+38
0.3296656030863619 9.111782760172718e+38
0.3327497094615182 9.241202949197025e+38
0.3358626684438142 9.372466410804729e+38
0.3390047499567989 9.505599397884363e+38
0.34217622644922546 9.640628537232816e+38
0.3453773729186755 9.777580834879809e+38
0.34860846693540315 9.916483681489748e+38
0.35186978866640367 1.0057364857839753e+39
0.35516162089970676 1.0200252540375684e+39
0.3584842490688965 1.0345175306848135e+39
0.3618379612778614 1.0492162142027043e+39
0.3652230483257761 1.0640845764997143e+39
0.3686398037323161 1.0785912775047501e+39
0.3720885237631085 1.0932962128984083e+39
0.37556950745542206 1.1082020915579917e+39
0.3790830566440955 1.1233116593776535e+39
0.3826294759877099 1.138627699774251e+39
0.3862090729950061 1.154153034200113e+39
0.3898221580515478 1.16989052266272e+39
0.39346904444663533 1.1858430642516738e+39
0.39715004840047113 1.202013597672681e+39
0.40086548909157865 1.2184051017889268e+39
0.4046156886844783 1.2350205961698466e+39
0.4084009723576226 1.2518631416472988e+39
0.4122216683315919 1.2689358408795366e+39
0.4160781078975541 1.2862418389226872e+39
0.4199706254459915 1.303784323810138e+39
0.4238995584956949 1.3215665271398449e+39
0.42786524772303 1.3395917246695563e+39
0.4318680369914778 1.3578632369203873e+39
0.4359082733814501 1.376384429788425e+39
0.4399863072203852 1.3951587151648008e+39
0.4441024921131246 1.4119942726163012e+39
0.44825718497257383 1.4229494606443046e+39
0.45245074605065017 1.4339897964958618e+39
0.4566835389695205 1.4451159419717406e+39
0.4609559307531301 1.4563285640164732e+39
0.46526829185902757 1.467628334758334e+39
0.46962099621048714 1.4790159315496302e+39
0.47401442122893117 1.490492037007305e+39
0.47844894786665626 1.5020573390538304e+39
0.4829249606398659 1.513712530958545e+39
0.4874428476620112 1.5254583113790605e+39
0.49200300067744396 1.5372953844032437e+39
0.49660581509538576 1.5492244595913948e+39
0.5012516900242123 1.5612462520187826e+39
0.5059410283060608 1.5733614823185085e+39
0.5106742365517605 1.5855708767247046e+39
0.5154517251760887 1.5978751671160664e+39
0.5202739084333587 1.6102750910597247e+39
0.5251412044533397 1.622771391855458e+39
0.5300540352775115 1.635364818580249e+39
0.5350128268956605 1.648056126133188e+39
0.5400180092828175 1.6608460752807226e+39
0.5450700164365396 1.6737354327022627e+39
0.5501692864145424 1.6867249710361377e+39
0.5553162613726846 1.6998154689259116e+39
0.5605113876033057 1.7130077110670285e+39
0.5657551155739252 1.719582963629196e+39
0.5710478999663017 1.7127917747544547e+39
0.5763901997158583 1.7060274453866553e+39
0.5817824780514772 1.6992898692950995e+39
0.5872252025356656 1.692578940669126e+39
0.5927188451050975 1.685894554116643e+39
0.5982638821115367 1.67923660466239e+39
0.6038607943631392 1.6726049877462072e+39
0.6095100671661451 1.6659995992215847e+39
0.6152121903669592 1.6594203353538083e+39
0.6209676583946249 1.6528670928185488e+39
0.6267769703036961 1.6463397687000222e+39
0.6326406298175109 1.6398382604895623e+39
0.638559145371868 1.6333624660839305e+39
0.6445330301591136 1.626912283783631e+39
0.6505628021726404 1.6204876122915013e+39
0.6566489842518021 1.6140883507109092e+39
0.6627921041272485 1.607714398544379e+39
0.6689926944666862 1.6013656556918028e+39
0.6752512929210638 1.5950420224490524e+39
0.681568442171193 1.5887433995063344e+39
0.6879446899748042 1.582469687946553e+39
0.6943805892140417 1.5762207892439382e+39
0.700876697943404 1.5699966052622915e+39
0.7074335794381336 1.563797038253651e+39
0.7140518022430566 1.5576219908565506e+39
0.7207319402218823 1.551471366094671e+39
0.7274745726069626 1.5453450673752378e+39
0.7342802840495165 1.5392429984874316e+39
0.7411496646703254 1.5331650636010522e+39
0.7480833101109022 1.5271111672648122e+39
0.7550818215851391 1.5210812144050394e+39
0.7621458059314384 1.515075110323983e+39
0.7692758756653321 1.5090927606985017e+39
0.7764726490325915 1.5031340715785064e+39
0.7837367500628364 1.4971989493854122e+39
0.7910688086236439 1.4912873009108404e+39
0.798469460475164 1.4853990333149582e+39
0.8059393473252456 1.4795340541252168e+39
0.8134791168850806 1.4617018960619883e+39
0.8210894229253642 1.4360088115987254e+39
0.8287709253329846 1.4107681185919683e+39
0.836524290168242 1.3859718515508388e+39
0.844350189722601 1.3616121852369858e+39
0.8522493025769856 1.3376814321950863e+39
0.8602223136606191 1.3141720403268278e+39
0.8682699143104129 1.2910765905076078e+39
0.8763928023309131 1.2683877942451965e+39
0.8845916820548068 1.2460984913796244e+39
0.8928672644039937 1.2242016478235708e+39
0.9012202669512305 1.2026903533425362e+39
0.9096514139823519 1.1815578193741022e+39
0.9181614365590718 1.1607973768855878e+39
0.9267510725823752 1.1404024742694273e+39
0.9354210668564988 1.1203666752756056e+39
0.9441721711535155 1.100683656980498e+39
0.9530051442785189 1.0813472077914556e+39
0.961920752135418 1.0623512254866148e+39
0.9709197677933507 1.0436897152890419e+39
0.9800029715537153 1.0253567879749661e+39
0.9891711510178287 1.0073466580152323e+39
0.9984251011552218 9.89653641749496e+38
1.0077656243725694 9.72272155592567e+38
1.0171935305832656 9.551967142723336e+38
1.0267096372776536 9.384219290987137e+38
1.036314769593909 9.219425062630843e+38
1.0460097603895848 9.057532451676554e+38
1.0557954503138325 8.898490367842584e+38
1.065672687880292 8.74224862042031e+38
1.0756423295406643 8.588757902434945e+38
1.0857052397589781 8.437969775085154e+38
1.095862291086545 8.289836652456694e+38
1.1061143642376163 8.144311786505181e+38
1.1164623481657532 8.001349252303274e+38
1.1269071401409054 7.860903933547641e+38
1.137449645827212 7.722931508321086e+38
1.148090779361535 7.587388435105383e+38
1.15883146343272 7.454231939040392e+38
1.1696726293616029 7.323419998424984e+38
1.1806152171817674 7.194911331456264e+38
1.1916601757210517 7.068665383201084e+38
1.2028084626838211 6.944642312798144e+38
1.2140610447340126 6.822802980884838e+38
1.2254188975789526 6.703108937245609e+38
1.2368830060539584 6.5855224086777784e+38
1.2484543642077364 6.470006287071023e+38
1.2601339753885739 6.356416496832428e+38
1.271922852331337 6.243840990112416e+38
1.2838220172452892 6.1332670990675384e+38
1.295832501902723 6.024659234559101e+38
1.307955347728425 5.917982440230721e+38
1.3201916058899785 5.813202381257227e+38
1.3325423373889111 5.7102853332937e+38
1.3450086131526893 5.6091981716210184e+38
1.3575915141275832 5.509908360484381e+38
1.3702921313723928 5.412383942621312e+38
1.3831115661530515 5.3165935289763066e+38
1.3960509300381203 5.2225062885974594e+38
1.4091113449951693 5.130091938713621e+38
1.4222939434880615 5.039320734987549e+38
1.4355998685751523 4.9501634619424326e+38
1.4490302740084013 4.862591423558655e+38
1.4625863243334123 4.77657643403773e+38
1.476269194990414 4.692090808730471e+38
1.4900800724161802 4.6091073552263734e+38
1.5040201541469038 4.527599364601814e+38
1.5180906489220376 4.447540602823103e+38
1.5322927767891035 4.36890530230314e+38
1.5466277692094783 4.291668153607829e+38
1.5610968691651783 4.215804297310018e+38
1.5757013312666366 4.141289315988287e+38
1.5904424218614859 4.0680992263679914e+38
1.6053214191443692 3.996210471602048e+38
1.6203396132677683 3.9255999136888955e+38
1.6354983064538702 3.856244826025595e+38
1.6507988131074878 3.7881228860926915e+38
1.6662424599300283 3.7212121682697845e+38
1.6818305860345284 3.655491136778515e+38
1.6975645430617745 3.590938638751097e+38
1.713445695297499 3.527533897422082e+38
1.7294754197906752 3.465256505441192e+38
1.7456551064729258 3.4040864183050325e+38
1.761986158279041 3.3440039479055518e+38
1.7784699912686237 3.284989756193472e+38
1.7951080347488797 3.2270248489538488e+38
1.8119017313985522 3.170090569692843e+38
1.8288525373930105 3.114168593632914e+38
1.845961922530522 3.0592409218148367e+38
1.863231370359694 3.0052898753045857e+38
1.8806623783081096 2.9522980895032193e+38
1.8982564578121737 2.9002485085579398e+38
1.916015134448167 2.849124379872474e+38
1.933939948064526 2.7989092487152976e+38
1.9520324529153665 2.74958695292326e+38
1.9702942177952516 2.7011416176998426e+38
1.9887268261752167 2.6535576505056765e+38
2.007331876340079 2.6068197360399516e+38
2.0261109815270206 2.560912831311057e+38
2.045065770065468 2.515822160794868e+38
2.0641978855182908 2.4715332116791203e+38
2.0835089868243126 2.4280317291922978e+38
2.103000748442151 2.3853037120157737e+38
2.1226748604954184 2.3433354077771297e+38
2.142533028919266 2.302113308623998e+38
2.162576975608305 2.261624146876406e+38
2.1828084385659148 2.2218548907564605e+38
2.203229172054943 2.1815815330832934e+38
2.2238409467498146 2.1356980792288983e+38
2.24464554989007 2.0907908010690322e+38
2.265644785435336 2.04683893035487e+38
2.2868404742217403 2.003822140684441e+38
2.308234454119804 1.9617205381022536e+38
2.3298285801937997 1.9205146518990757e+38
2.3516247248625985 1.8801854256071313e+38
2.373624778062034 1.8407142081871924e+38
2.395830647408775 1.8020827454030117e+38
2.4182442583657324 1.7642731713792626e+38
2.4408675544090173 1.727268000339232e+38
2.463702497196462 1.6910501185180075e+38
2.486751066737706 1.6556027762479991e+38
2.5100152615658917 1.6209095802126972e+38
2.533497098910953 1.586954485865239e+38
2.5571986148745225 1.553721790008395e+38
2.581121864606492 1.5211961235321657e+38
2.6052689224832077 1.4893624443061378e+38
2.629641882287334 1.458206030222932e+38
2.6542428573894163 1.4277124723896772e+38
2.6790739809311215 1.3978676684643116e+38
2.7041374060102026 1.3686578161337716e+38
2.729435305867198 1.3400694067307047e+38
2.7549698740738693 1.3120892189862138e+38
2.780743324723402 1.2847043129154e+38
2.8067578926223957 1.2579020238329933e+38
2.833015833484639 1.2316699564964021e+38
2.859519424126699 1.2059959793731697e+38
2.8862709626653498 1.1808682190305901e+38
2.913272768716839 1.1562750546445883e+38
2.940527183598016 1.1322051126254231e+38
2.968036570529352 1.1086472613578223e+38
2.995803314839856 1.0855906060528385e+38
3.023829824173897 1.0644369503886695e+38
3.052118528699978 1.0441162396932555e+38
3.080671881321455 1.024383807080988e+38
3.109492357889219 1.007914920123931e+38
3.1385824574163865 9.953575319301911e+37
3.167944702294984 9.851566117884131e+37
3.197581638514657 9.867461512381935e+37
3.2274958358834445 1.046863856982013e+38
3.257689888250599 1.1925284963586671e+38
3.2881664137314934 1.5148637841099591e+38
3.3189280549346476 1.2183444172957992e+38
3.3499774791908616 1.0253145239372429e+38
3.3813173787845012 9.132227847176597e+37
3.4129504711869383 8.59242219872768e+37
3.4448794992921936 8.238983328574942e+37
3.477107231654765 7.935877628629882e+37
3.5096364627296834 7.694578504807554e+37
3.5424700131148295 7.511166787356438e+37
3.575610729795502 7.333233803621309e+37
3.609061486391272 7.161181124856433e+37
3.6428251834051655 7.005630065638621e+37
3.676904748475159 6.8534953601221505e+37
3.71130313662803 6.704700743688791e+37
3.7460233305355923 6.562383016698299e+37
3.7810683407733245 6.424145832663142e+37
3.816441206081404 6.288828530977925e+37
3.8521449936282095 6.157102385813759e+37
3.888182799276267 6.029042178625015e+37
3.924557747850685 5.903682801559024e+37
3.9612729934101214 5.781143838246199e+37
3.9983317195202606 5.662187042046537e+37
4.035737139529856 5.545750316785128e+37
4.073492496849372 5.431780076278879e+37
4.1116010652322075 5.320974639066717e+37
4.15006614905856 5.212663325588425e+37
4.188891083621961 5.106663409368773e+37
4.228079235418465 5.003303999666217e+37
4.26763400243856 4.902471289190336e+37
4.307558814461811 4.803809789099151e+37
4.347857133354252 4.707477471046927e+37
4.3885324533685575 4.613843474974581e+37
4.429588301447038 4.522256069635278e+37
4.471028237527456 4.4326721695511185e+37
4.5128558548517 4.346144587882969e+37
4.555074780277364 4.261619020269435e+37
4.597688674592227 4.178998725901083e+37
4.640701232831672 4.09888810449766e+37
4.684116184599092 4.0209770101020623e+37
4.727937294389279 3.944887932210801e+37
4.772168361914833 3.8716904448750684e+37
4.8168132224356475 3.802397320898518e+37
4.8618757470914575 3.7349776200132328e+37
4.907359843237499 3.6612142741458164e+37
4.953269454783324 3.554428240701087e+37
4.999608562534772 3.4532058961344385e+37
5.046381184539137 3.3574455223277633e+37
5.093591376433585 3.297157223664104e+37
5.141243231796808 3.2607741498861645e+37
5.189340882503969 3.241231268281856e+37
5.237888499084996 3.191578070912394e+37
5.286890291086193 3.0901500578598034e+37
5.336350507435241 2.9922714008862425e+37
5.386273436809642 2.9021522301927943e+37
5.436663408008575 2.840331581994824e+37
5.48752479032824 2.7825922954875466e+37
5.538861993940732 2.7288600298333816e+37
5.59067947027644 2.745922561461169e+37
5.642981712410019 2.7935341578076723e+37
5.695773255449997 2.863729594717707e+37
5.749058676932012 2.854289645859472e+37
5.802842597215708 2.767231045992982e+37
5.857129679885396 2.6830059771524843e+37
5.911924632154409 2.685590809861499e+37
5.967232205273266 3.009239264861949e+37
6.023057194941661 3.4705887315729745e+37
6.07940444172429 4.11761176775868e+37
6.136278831470568 4.606630235879501e+37
6.193685295738293 5.183013843535045e+37
6.251628812221252 5.883254372616717e+37
6.31011440518083 5.277713441020351e+37
6.369147145881671 4.2018938294151925e+37
6.428732153031409 3.390632887106598e+37
6.4888745932244865 2.949461218527218e+37
6.5495796813901785 2.8835439957577105e+37
6.610852681244759 2.81945801905405e+37
6.672698905747911 2.7580636904918787e+37
6.73512371756343 2.7154277065674143e+37
6.798132529524207 2.674138700141002e+37
6.861730805101567 2.634148194393505e+37
6.925924058879022 2.673168796928295e+37
6.990717857030425 2.743947646020054e+37
7.056117817802609 2.821579402630952e+37
7.122129612002559 2.9782319047143216e+37
7.1887589634891125 3.252067783081786e+37
7.256011649669268 3.5680180858445004e+37
7.3238935019991604 3.9652797766117624e+37
7.392410406489695 4.651070718082043e+37
7.461568304216908 5.491636716603482e+37
7.531373191837141 6.520253447428779e+37
7.601831122106993 6.821815922083044e+37
7.672948204408145 6.979623366931603e+37
7.744730605277125 7.143373349055756e+37
7.817184548939993 6.7127975257069e+37
7.89031631785203 5.886614451202676e+37
7.964132253242513 5.1663829922865655e+37
8.038638755664545 4.520066748305463e+37
